frequency	V(onoise)
6.250000000000000e+001	1.244741e-007
1.875457987298486e+002	1.244678e-007
3.125915974596971e+002	1.244615e-007
4.376373961895457e+002	1.244551e-007
5.626831949193943e+002	1.244486e-007
6.877289936492427e+002	1.244420e-007
8.127747923790913e+002	1.244353e-007
9.378205911089399e+002	1.244285e-007
1.062866389838789e+003	1.244216e-007
1.187912188568637e+003	1.244147e-007
1.312957987298486e+003	1.244076e-007
1.438003786028334e+003	1.244005e-007
1.563049584758183e+003	1.256084e-007
1.688095383488031e+003	1.272993e-007
1.813141182217880e+003	1.287586e-007
1.938186980947728e+003	1.301018e-007
2.063232779677577e+003	1.313688e-007
2.188278578407425e+003	1.325797e-007
2.313324377137274e+003	1.337467e-007
2.438370175867123e+003	1.348778e-007
2.563415974596971e+003	1.359787e-007
2.688461773326820e+003	1.370535e-007
2.813507572056668e+003	1.381056e-007
2.938553370786517e+003	1.391374e-007
3.063599169516365e+003	1.401511e-007
3.188644968246214e+003	1.411483e-007
3.313690766976063e+003	1.421306e-007
3.438736565705911e+003	1.430990e-007
3.563782364435760e+003	1.440547e-007
3.688828163165608e+003	1.449986e-007
3.813873961895457e+003	1.459314e-007
3.938919760625305e+003	1.468538e-007
4.063965559355154e+003	1.477665e-007
4.189011358085002e+003	1.486701e-007
4.314057156814851e+003	1.495649e-007
4.439102955544699e+003	1.504516e-007
4.564148754274548e+003	1.513304e-007
4.689194553004397e+003	1.522017e-007
4.814240351734246e+003	1.530659e-007
4.939286150464094e+003	1.539233e-007
5.064331949193942e+003	1.547742e-007
5.189377747923791e+003	1.556188e-007
5.314423546653639e+003	1.564574e-007
5.439469345383488e+003	1.572902e-007
5.564515144113337e+003	1.581174e-007
5.689560942843185e+003	1.589392e-007
5.814606741573034e+003	1.597558e-007
5.939652540302883e+003	1.605674e-007
6.064698339032731e+003	1.613741e-007
6.189744137762579e+003	1.621760e-007
6.314789936492428e+003	1.629734e-007
6.439835735222277e+003	1.637663e-007
6.564881533952125e+003	1.645549e-007
6.689927332681974e+003	1.653393e-007
6.814973131411823e+003	1.661196e-007
6.940018930141670e+003	1.668959e-007
7.065064728871519e+003	1.676683e-007
7.190110527601368e+003	1.684369e-007
7.315156326331216e+003	1.692018e-007
7.440202125061065e+003	1.699631e-007
7.565247923790914e+003	1.707208e-007
7.690293722520763e+003	1.714751e-007
7.815339521250610e+003	1.722261e-007
7.940385319980459e+003	1.729737e-007
8.065431118710308e+003	1.737181e-007
8.190476917440156e+003	1.744593e-007
8.315522716170004e+003	1.751974e-007
8.440568514899853e+003	1.759325e-007
8.565614313629701e+003	1.766645e-007
8.690660112359550e+003	1.773937e-007
8.815705911089399e+003	1.781199e-007
8.940751709819248e+003	1.788434e-007
9.065797508549096e+003	1.795640e-007
9.190843307278945e+003	1.802819e-007
9.315889106008794e+003	1.809972e-007
9.440934904738642e+003	1.817098e-007
9.565980703468491e+003	1.824198e-007
9.691026502198340e+003	1.831272e-007
9.816072300928188e+003	1.838321e-007
9.941118099658037e+003	1.845346e-007
1.006616389838788e+004	1.852346e-007
1.019120969711773e+004	1.859322e-007
1.031625549584758e+004	1.866274e-007
1.044130129457743e+004	1.873203e-007
1.056634709330728e+004	1.880109e-007
1.069139289203713e+004	1.886992e-007
1.081643869076698e+004	1.893853e-007
1.094148448949683e+004	1.900691e-007
1.106653028822667e+004	1.907508e-007
1.119157608695652e+004	1.914303e-007
1.131662188568637e+004	1.921077e-007
1.144166768441622e+004	1.927830e-007
1.156671348314607e+004	1.934562e-007
1.169175928187592e+004	1.941273e-007
1.181680508060577e+004	1.947964e-007
1.194185087933561e+004	1.954635e-007
1.206689667806546e+004	1.961286e-007
1.219194247679531e+004	1.967918e-007
1.231698827552516e+004	1.974530e-007
1.244203407425501e+004	1.981123e-007
1.256707987298486e+004	1.987697e-007
1.269212567171470e+004	1.994252e-007
1.281717147044455e+004	2.000788e-007
1.294221726917440e+004	2.007306e-007
1.306726306790425e+004	2.013806e-007
1.319230886663410e+004	2.020288e-007
1.331735466536395e+004	2.026751e-007
1.344240046409380e+004	2.033197e-007
1.356744626282365e+004	2.039626e-007
1.369249206155349e+004	2.046037e-007
1.381753786028334e+004	2.052430e-007
1.394258365901319e+004	2.058807e-007
1.406762945774304e+004	2.065166e-007
1.419267525647289e+004	2.071509e-007
1.431772105520274e+004	2.077835e-007
1.444276685393258e+004	2.084145e-007
1.456781265266243e+004	2.090438e-007
1.469285845139228e+004	2.096714e-007
1.481790425012213e+004	2.102975e-007
1.494295004885198e+004	2.109220e-007
1.506799584758183e+004	2.115448e-007
1.519304164631168e+004	2.121661e-007
1.531808744504153e+004	2.127858e-007
1.544313324377137e+004	2.134040e-007
1.556817904250122e+004	2.140206e-007
1.569322484123107e+004	2.146356e-007
1.581827063996092e+004	2.152492e-007
1.594331643869077e+004	2.158612e-007
1.606836223742062e+004	2.164717e-007
1.619340803615046e+004	2.170807e-007
1.631845383488031e+004	2.176883e-007
1.644349963361016e+004	2.182943e-007
1.656854543234001e+004	2.188989e-007
1.669359123106986e+004	2.195021e-007
1.681863702979971e+004	2.201038e-007
1.694368282852956e+004	2.207040e-007
1.706872862725940e+004	2.213028e-007
1.719377442598925e+004	2.219002e-007
1.731882022471910e+004	2.224962e-007
1.744386602344895e+004	2.230908e-007
1.756891182217880e+004	2.236839e-007
1.769395762090865e+004	2.242757e-007
1.781900341963850e+004	2.248661e-007
1.794404921836835e+004	2.254551e-007
1.806909501709819e+004	2.260427e-007
1.819414081582804e+004	2.266290e-007
1.831918661455789e+004	2.272139e-007
1.844423241328774e+004	2.277974e-007
1.856927821201759e+004	2.283796e-007
1.869432401074743e+004	2.289605e-007
1.881936980947728e+004	2.295400e-007
1.894441560820713e+004	2.301183e-007
1.906946140693698e+004	2.306952e-007
1.919450720566683e+004	2.312707e-007
1.931955300439668e+004	2.318450e-007
1.944459880312653e+004	2.324180e-007
1.956964460185638e+004	2.329896e-007
1.969469040058622e+004	2.335600e-007
1.981973619931607e+004	2.341291e-007
1.994478199804592e+004	2.346969e-007
2.006982779677577e+004	2.352634e-007
2.019487359550562e+004	2.358287e-007
2.031991939423547e+004	2.363927e-007
2.044496519296532e+004	2.369554e-007
2.057001099169516e+004	2.375169e-007
2.069505679042501e+004	2.380771e-007
2.082010258915486e+004	2.386360e-007
2.094514838788471e+004	2.391938e-007
2.107019418661456e+004	2.397502e-007
2.119523998534441e+004	2.403055e-007
2.132028578407425e+004	2.408595e-007
2.144533158280411e+004	2.414122e-007
2.157037738153395e+004	2.419638e-007
2.169542318026380e+004	2.425141e-007
2.182046897899365e+004	2.430632e-007
2.194551477772350e+004	2.436111e-007
2.207056057645335e+004	2.441578e-007
2.219560637518319e+004	2.447033e-007
2.232065217391304e+004	2.452476e-007
2.244569797264289e+004	2.457907e-007
2.257074377137274e+004	2.463325e-007
2.269578957010259e+004	2.468732e-007
2.282083536883244e+004	2.474127e-007
2.294588116756229e+004	2.479510e-007
2.307092696629214e+004	2.484882e-007
2.319597276502198e+004	2.490241e-007
2.332101856375183e+004	2.495589e-007
2.344606436248168e+004	2.500925e-007
2.357111016121153e+004	2.506249e-007
2.369615595994138e+004	2.511561e-007
2.382120175867123e+004	2.516862e-007
2.394624755740108e+004	2.522151e-007
2.407129335613092e+004	2.527429e-007
2.419633915486077e+004	2.532695e-007
2.432138495359062e+004	2.537949e-007
2.444643075232047e+004	2.543192e-007
2.457147655105032e+004	2.548423e-007
2.469652234978017e+004	2.553643e-007
2.482156814851001e+004	2.558851e-007
2.494661394723987e+004	2.564047e-007
2.507165974596971e+004	2.569233e-007
2.519670554469956e+004	2.574407e-007
2.532175134342941e+004	2.579569e-007
2.544679714215926e+004	2.584720e-007
2.557184294088911e+004	2.589860e-007
2.569688873961895e+004	2.594988e-007
2.582193453834880e+004	2.600105e-007
2.594698033707865e+004	2.605211e-007
2.607202613580850e+004	2.610305e-007
2.619707193453835e+004	2.615388e-007
2.632211773326820e+004	2.620460e-007
2.644716353199805e+004	2.625520e-007
2.657220933072790e+004	2.630570e-007
2.669725512945774e+004	2.635608e-007
2.682230092818759e+004	2.640635e-007
2.694734672691744e+004	2.645650e-007
2.707239252564729e+004	2.650655e-007
2.719743832437714e+004	2.655648e-007
2.732248412310698e+004	2.660630e-007
2.744752992183684e+004	2.665601e-007
2.757257572056668e+004	2.670561e-007
2.769762151929653e+004	2.675510e-007
2.782266731802638e+004	2.680447e-007
2.794771311675623e+004	2.685373e-007
2.807275891548608e+004	2.690289e-007
2.819780471421593e+004	2.695193e-007
2.832285051294577e+004	2.700086e-007
2.844789631167562e+004	2.704969e-007
2.857294211040547e+004	2.709839e-007
2.869798790913532e+004	2.714699e-007
2.882303370786517e+004	2.719548e-007
2.894807950659502e+004	2.724386e-007
2.907312530532487e+004	2.729213e-007
2.919817110405471e+004	2.734029e-007
2.932321690278456e+004	2.738834e-007
2.944826270151441e+004	2.743627e-007
2.957330850024426e+004	2.748410e-007
2.969835429897411e+004	2.753182e-007
2.982340009770396e+004	2.757943e-007
2.994844589643381e+004	2.762692e-007
3.007349169516366e+004	2.767431e-007
3.019853749389350e+004	2.772159e-007
3.032358329262335e+004	2.776876e-007
3.044862909135320e+004	2.781582e-007
3.057367489008305e+004	2.786277e-007
3.069872068881290e+004	2.790961e-007
3.082376648754275e+004	2.795634e-007
3.094881228627259e+004	2.800296e-007
3.107385808500244e+004	2.804946e-007
3.119890388373229e+004	2.809587e-007
3.132394968246214e+004	2.814216e-007
3.144899548119199e+004	2.818834e-007
3.157404127992184e+004	2.823441e-007
3.169908707865169e+004	2.828037e-007
3.182413287738153e+004	2.832622e-007
3.194917867611138e+004	2.837197e-007
3.207422447484123e+004	2.841760e-007
3.219927027357108e+004	2.846313e-007
3.232431607230093e+004	2.850853e-007
3.244936187103078e+004	2.855035e-007
3.257440766976063e+004	2.858609e-007
3.269945346849047e+004	2.861648e-007
3.282449926722032e+004	2.864216e-007
3.294954506595017e+004	2.866369e-007
3.307459086468002e+004	2.868158e-007
3.319963666340987e+004	2.869624e-007
3.332468246213972e+004	2.870807e-007
3.344972826086957e+004	2.871740e-007
3.357477405959941e+004	2.872453e-007
3.369981985832926e+004	2.872970e-007
3.382486565705911e+004	2.873316e-007
3.394991145578896e+004	2.873511e-007
3.407495725451881e+004	2.873572e-007
3.420000305324866e+004	2.873514e-007
3.432504885197851e+004	2.873351e-007
3.445009465070836e+004	2.873096e-007
3.457514044943820e+004	2.872759e-007
3.470018624816805e+004	2.872349e-007
3.482523204689790e+004	2.871875e-007
3.495027784562775e+004	2.871343e-007
3.507532364435760e+004	2.870761e-007
3.520036944308745e+004	2.870133e-007
3.532541524181730e+004	2.869465e-007
3.545046104054714e+004	2.868761e-007
3.557550683927699e+004	2.868024e-007
3.570055263800684e+004	2.867259e-007
3.582559843673669e+004	2.866468e-007
3.595064423546653e+004	2.865654e-007
3.607569003419639e+004	2.864819e-007
3.620073583292624e+004	2.863965e-007
3.632578163165608e+004	2.863094e-007
3.645082743038593e+004	2.862208e-007
3.657587322911578e+004	2.861307e-007
3.670091902784563e+004	2.860393e-007
3.682596482657547e+004	2.859468e-007
3.695101062530532e+004	2.858532e-007
3.707605642403517e+004	2.857585e-007
3.720110222276503e+004	2.856630e-007
3.732614802149487e+004	2.855666e-007
3.745119382022472e+004	2.854693e-007
3.757623961895457e+004	2.853713e-007
3.770128541768442e+004	2.852726e-007
3.782633121641426e+004	2.851732e-007
3.795137701514411e+004	2.850732e-007
3.807642281387396e+004	2.849726e-007
3.820146861260381e+004	2.848714e-007
3.832651441133366e+004	2.847696e-007
3.845156021006351e+004	2.846673e-007
3.857660600879336e+004	2.845645e-007
3.870165180752320e+004	2.844611e-007
3.882669760625305e+004	2.843573e-007
3.895174340498290e+004	2.842530e-007
3.907678920371275e+004	2.841482e-007
3.920183500244260e+004	2.840430e-007
3.932688080117245e+004	2.839373e-007
3.945192659990230e+004	2.838312e-007
3.957697239863215e+004	2.837246e-007
3.970201819736199e+004	2.836176e-007
3.982706399609184e+004	2.835102e-007
3.995210979482169e+004	2.834023e-007
4.007715559355154e+004	2.832941e-007
4.020220139228139e+004	2.831854e-007
4.032724719101124e+004	2.830763e-007
4.045229298974109e+004	2.829668e-007
4.057733878847093e+004	2.828569e-007
4.070238458720078e+004	2.827466e-007
4.082743038593063e+004	2.826359e-007
4.095247618466048e+004	2.825247e-007
4.107752198339033e+004	2.824132e-007
4.120256778212018e+004	2.823012e-007
4.132761358085003e+004	2.821889e-007
4.145265937957988e+004	2.820761e-007
4.157770517830972e+004	2.819630e-007
4.170275097703957e+004	2.818495e-007
4.182779677576942e+004	2.817355e-007
4.195284257449926e+004	2.816211e-007
4.207788837322911e+004	2.815064e-007
4.220293417195897e+004	2.813912e-007
4.232797997068882e+004	2.812756e-007
4.245302576941866e+004	2.811597e-007
4.257807156814851e+004	2.810433e-007
4.270311736687836e+004	2.809265e-007
4.282816316560821e+004	2.808093e-007
4.295320896433805e+004	2.806918e-007
4.307825476306790e+004	2.805737e-007
4.320330056179775e+004	2.804553e-007
4.332834636052761e+004	2.803365e-007
4.345339215925745e+004	2.802173e-007
4.357843795798730e+004	2.800977e-007
4.370348375671715e+004	2.799777e-007
4.382852955544699e+004	2.798572e-007
4.395357535417684e+004	2.797364e-007
4.407862115290669e+004	2.796151e-007
4.420366695163654e+004	2.794935e-007
4.432871275036639e+004	2.793714e-007
4.445375854909624e+004	2.792489e-007
4.457880434782609e+004	2.791260e-007
4.470385014655594e+004	2.790026e-007
4.482889594528578e+004	2.788789e-007
4.495394174401563e+004	2.787548e-007
4.507898754274548e+004	2.786302e-007
4.520403334147533e+004	2.785052e-007
4.532907914020518e+004	2.783798e-007
4.545412493893503e+004	2.782540e-007
4.557917073766488e+004	2.781277e-007
4.570421653639472e+004	2.780011e-007
4.582926233512457e+004	2.778740e-007
4.595430813385442e+004	2.777465e-007
4.607935393258427e+004	2.776186e-007
4.620439973131412e+004	2.774902e-007
4.632944553004397e+004	2.773615e-007
4.645449132877382e+004	2.772323e-007
4.657953712750367e+004	2.771027e-007
4.670458292623351e+004	2.769726e-007
4.682962872496336e+004	2.768422e-007
4.695467452369321e+004	2.767113e-007
4.707972032242306e+004	2.765800e-007
4.720476612115291e+004	2.764482e-007
4.732981191988276e+004	2.763160e-007
4.745485771861261e+004	2.761834e-007
4.757990351734245e+004	2.760504e-007
4.770494931607230e+004	2.759169e-007
4.782999511480215e+004	2.757830e-007
4.795504091353200e+004	2.756487e-007
4.808008671226184e+004	2.755139e-007
4.820513251099169e+004	2.753787e-007
4.833017830972155e+004	2.752431e-007
4.845522410845140e+004	2.751070e-007
4.858026990718124e+004	2.749705e-007
4.870531570591109e+004	2.748336e-007
4.883036150464094e+004	2.746962e-007
4.895540730337079e+004	2.745584e-007
4.908045310210063e+004	2.744201e-007
4.920549890083048e+004	2.742814e-007
4.933054469956033e+004	2.741423e-007
4.945559049829018e+004	2.740027e-007
4.958063629702003e+004	2.738627e-007
4.970568209574988e+004	2.737222e-007
4.983072789447973e+004	2.735813e-007
4.995577369320957e+004	2.734400e-007
5.008081949193942e+004	2.732982e-007
5.020586529066927e+004	2.731559e-007
5.033091108939912e+004	2.730133e-007
5.045595688812897e+004	2.728701e-007
5.058100268685882e+004	2.727265e-007
5.070604848558867e+004	2.725825e-007
5.083109428431852e+004	2.724380e-007
5.095614008304836e+004	2.722931e-007
5.108118588177821e+004	2.721477e-007
5.120623168050806e+004	2.720019e-007
5.133127747923791e+004	2.718556e-007
5.145632327796776e+004	2.717089e-007
5.158136907669761e+004	2.715617e-007
5.170641487542746e+004	2.714141e-007
5.183146067415730e+004	2.712659e-007
5.195650647288715e+004	2.711174e-007
5.208155227161700e+004	2.709684e-007
5.220659807034685e+004	2.708189e-007
5.233164386907670e+004	2.706690e-007
5.245668966780655e+004	2.705186e-007
5.258173546653640e+004	2.703678e-007
5.270678126526625e+004	2.702165e-007
5.283182706399609e+004	2.700647e-007
5.295687286272594e+004	2.699125e-007
5.308191866145579e+004	2.697598e-007
5.320696446018563e+004	2.696067e-007
5.333201025891549e+004	2.694530e-007
5.345705605764534e+004	2.692990e-007
5.358210185637519e+004	2.691444e-007
5.370714765510503e+004	2.689894e-007
5.383219345383488e+004	2.688340e-007
5.395723925256473e+004	2.686780e-007
5.408228505129458e+004	2.685216e-007
5.420733085002442e+004	2.683647e-007
5.433237664875427e+004	2.682074e-007
5.445742244748413e+004	2.680496e-007
5.458246824621398e+004	2.678913e-007
5.470751404494382e+004	2.677326e-007
5.483255984367367e+004	2.675733e-007
5.495760564240352e+004	2.674136e-007
5.508265144113336e+004	2.672535e-007
5.520769723986321e+004	2.670928e-007
5.533274303859306e+004	2.669317e-007
5.545778883732291e+004	2.667701e-007
5.558283463605276e+004	2.666081e-007
5.570788043478261e+004	2.664455e-007
5.583292623351246e+004	2.662825e-007
5.595797203224231e+004	2.661190e-007
5.608301783097215e+004	2.659551e-007
5.620806362970200e+004	2.657906e-007
5.633310942843185e+004	2.656257e-007
5.645815522716170e+004	2.654603e-007
5.658320102589155e+004	2.652944e-007
5.670824682462140e+004	2.651280e-007
5.683329262335125e+004	2.649612e-007
5.695833842208109e+004	2.647938e-007
5.708338422081094e+004	2.646260e-007
5.720843001954079e+004	2.644577e-007
5.733347581827064e+004	2.642890e-007
5.745852161700049e+004	2.641197e-007
5.758356741573034e+004	2.639499e-007
5.770861321446019e+004	2.637797e-007
5.783365901319004e+004	2.636090e-007
5.795870481191988e+004	2.634378e-007
5.808375061064973e+004	2.632660e-007
5.820879640937958e+004	2.630939e-007
5.833384220810943e+004	2.629212e-007
5.845888800683928e+004	2.627480e-007
5.858393380556913e+004	2.625743e-007
5.870897960429898e+004	2.624002e-007
5.883402540302882e+004	2.622255e-007
5.895907120175867e+004	2.620504e-007
5.908411700048852e+004	2.618748e-007
5.920916279921837e+004	2.616987e-007
5.933420859794821e+004	2.615221e-007
5.945925439667807e+004	2.613450e-007
5.958430019540792e+004	2.611673e-007
5.970934599413777e+004	2.609893e-007
5.983439179286761e+004	2.608107e-007
5.995943759159746e+004	2.606316e-007
6.008448339032731e+004	2.604520e-007
6.020952918905715e+004	2.602719e-007
6.033457498778700e+004	2.600913e-007
6.045962078651685e+004	2.599103e-007
6.058466658524671e+004	2.597287e-007
6.070971238397655e+004	2.595466e-007
6.083475818270640e+004	2.593640e-007
6.095980398143625e+004	2.591809e-007
6.108484978016610e+004	2.589973e-007
6.120989557889594e+004	2.588133e-007
6.133494137762579e+004	2.586287e-007
6.145998717635564e+004	2.584436e-007
6.158503297508549e+004	2.582580e-007
6.171007877381534e+004	2.580719e-007
6.183512457254519e+004	2.578853e-007
6.196017037127504e+004	2.576982e-007
6.208521617000488e+004	2.575106e-007
6.221026196873473e+004	2.573225e-007
6.233530776746458e+004	2.571338e-007
6.246035356619443e+004	2.569447e-007
6.258539936492428e+004	2.567551e-007
6.271044516365413e+004	2.565649e-007
6.283549096238398e+004	2.563743e-007
6.296053676111383e+004	2.561831e-007
6.308558255984367e+004	2.559914e-007
6.321062835857352e+004	2.557993e-007
6.333567415730337e+004	2.556066e-007
6.346071995603322e+004	2.554134e-007
6.358576575476307e+004	2.552197e-007
6.371081155349292e+004	2.550254e-007
6.383585735222277e+004	2.548307e-007
6.396090315095261e+004	2.546355e-007
6.408594894968246e+004	2.544397e-007
6.421099474841231e+004	2.542434e-007
6.433604054714216e+004	2.540467e-007
6.446108634587201e+004	2.538494e-007
6.458613214460186e+004	2.536515e-007
6.471117794333171e+004	2.534532e-007
6.483622374206156e+004	2.532544e-007
6.496126954079140e+004	2.530550e-007
6.508631533952125e+004	2.528552e-007
6.521136113825110e+004	2.526548e-007
6.533640693698095e+004	2.524539e-007
6.546145273571080e+004	2.522524e-007
6.558649853444065e+004	2.520505e-007
